# Momemtum(GeV/c) Total_Energy(GeV) Kinetic_Energy(GeV) Range(m)
5.000000 5.001117 4.895417 10.635000
5.250000 5.251064 5.145364 11.141000
5.512500 5.513513 5.407813 11.670000
5.788125 5.789090 5.683390 12.224000
6.077531 6.078450 5.972750 12.803000
6.381408 6.382283 6.276583 13.408000
6.700478 6.701312 6.595612 14.042000
7.035502 7.036296 6.930596 14.704000
7.387277 7.388033 7.282333 15.398000
7.756641 7.757361 7.651661 16.123000
8.144473 8.145159 8.039459 16.881000
8.551697 8.552350 8.446650 17.674000
8.979282 8.979904 8.874204 18.504000
9.428246 9.428838 9.323138 19.372000
9.899658 9.900222 9.794522 20.281000
10.394641 10.395178 10.289478 21.231000
10.914373 10.914885 10.809185 22.225000
11.460092 11.460579 11.354879 23.265000
12.033096 12.033560 11.927860 24.354000
12.634751 12.635193 12.529493 25.492000
13.266489 13.266910 13.161210 26.683000
13.929813 13.930214 13.824514 27.928000
14.626304 14.626686 14.520986 29.231000
15.357619 15.357983 15.252283 30.594000
16.125500 16.125846 16.020146 32.021000
16.931775 16.932105 16.826405 33.513000
17.778363 17.778678 17.672978 35.073000
18.667282 18.667581 18.561881 36.706000
19.600646 19.600931 19.495231 38.413000
20.580678 20.580949 20.475249 40.199000
21.609712 21.609970 21.504270 42.068000
22.690197 22.690444 22.584744 44.022000
23.824707 23.824942 23.719242 46.066000
25.015943 25.016166 24.910466 48.204000
26.266740 26.266953 26.161253 50.440000
27.580077 27.580279 27.474579 52.778000
28.959081 28.959274 28.853574 55.223000
30.407035 30.407218 30.301518 57.779000
31.927386 31.927561 31.821861 60.452000
33.523756 33.523922 33.418222 63.246000
35.199944 35.200102 35.094402 66.167000
36.959941 36.960092 36.854392 69.220000
38.807938 38.808082 38.702382 72.411000
40.748335 40.748472 40.642772 75.746000
42.785751 42.785882 42.680182 79.231000
44.925039 44.925163 44.819463 82.872000
47.171291 47.171409 47.065709 86.676000
49.529855 49.529968 49.424268 90.650000
52.006348 52.006456 51.900756 94.801000
54.606666 54.606768 54.501068 99.136000
57.336999 57.337096 57.231396 103.663000
60.203849 60.203942 60.098242 108.388000
63.214041 63.214130 63.108430 113.321000
66.374743 66.374828 66.269128 118.469000
69.693481 69.693561 69.587861 123.842000
73.178155 73.178231 73.072531 129.446000
76.837062 76.837135 76.731435 135.293000
80.678915 80.678985 80.573285 141.390000
84.712861 84.712927 84.607227 147.747000
88.948504 88.948567 88.842867 154.374000
93.395929 93.395989 93.290289 161.280000
98.065726 98.065783 97.960083 168.475000
102.969012 102.969066 102.863366 175.970000
108.117463 108.117515 108.011815 183.776000
113.523336 113.523385 113.417685 191.902000
119.199503 119.199550 119.093850 200.358000
125.159478 125.159523 125.053823 209.157000
131.417452 131.417494 131.311794 218.309000
137.988324 137.988365 137.882665 227.826000
144.887741 144.887779 144.782079 237.717000
152.132128 152.132164 152.026464 247.993000
159.738734 159.738769 159.633069 258.666000
167.725671 167.725704 167.620004 269.745000
176.111954 176.111986 176.006286 281.242000
184.917552 184.917582 184.811882 293.169000
194.163430 194.163458 194.057758 305.537000
203.871601 203.871629 203.765929 318.355000
214.065181 214.065207 213.959507 331.637000
224.768440 224.768465 224.662765 345.393000
236.006862 236.006886 235.901186 359.633000
247.807205 247.807228 247.701528 374.368000
260.197566 260.197587 260.091887 389.606000
273.207444 273.207464 273.101764 405.360000
286.867816 286.867836 286.762136 421.637000
301.211207 301.211225 301.105525 438.446000
316.271767 316.271785 316.166085 455.794000
332.085356 332.085372 331.979672 473.686000
348.689623 348.689639 348.583939 492.131000
366.124105 366.124120 366.018420 511.133000
384.430310 384.430324 384.324624 530.699000
403.651825 403.651839 403.546139 550.834000
423.834417 423.834430 423.728730 571.543000
445.026137 445.026150 444.920450 592.829000
467.277444 467.277456 467.171756 614.695000
490.641316 490.641328 490.535628 637.139000
515.173382 515.173393 515.067693 660.164000
540.932051 540.932062 540.826362 683.778000
567.978654 567.978664 567.872964 707.981000
596.377587 596.377596 596.271896 732.771000
626.196466 626.196475 626.090775 758.146000
657.506289 657.506298 657.400598 784.104000
690.381604 690.381612 690.275912 810.641000
724.900684 724.900692 724.794992 837.752000
761.145718 761.145725 761.040025 865.430000
799.203004 799.203011 799.097311 893.672000
839.163154 839.163161 839.057461 922.471000
881.121312 881.121318 881.015618 951.820000
925.177377 925.177384 925.071684 981.711000
971.436246 971.436252 971.330552 1012.132000
1020.008059 1020.008064 1019.902364 1043.076000
1071.008462 1071.008467 1070.902767 1074.544000
1124.558885 1124.558890 1124.453190 1106.530000
1180.786829 1180.786834 1180.681134 1139.025000
1239.826170 1239.826175 1239.720475 1172.019000
1301.817479 1301.817483 1301.711783 1205.498000
1366.908353 1366.908357 1366.802657 1239.452000
1435.253770 1435.253774 1435.148074 1273.869000
1507.016459 1507.016463 1506.910763 1308.733000
1582.367282 1582.367285 1582.261585 1344.033000
1661.485646 1661.485649 1661.379949 1379.758000
1744.559928 1744.559932 1744.454232 1415.896000
1831.787925 1831.787928 1831.682228 1452.432000
1923.377321 1923.377324 1923.271624 1489.355000
2019.546187 2019.546190 2019.440490 1526.654000
2120.523496 2120.523499 2120.417799 1564.323000
2226.549671 2226.549674 2226.443974 1602.351000
2337.877155 2337.877157 2337.771457 1640.729000
2454.771013 2454.771015 2454.665315 1679.445000
2577.509563 2577.509565 2577.403865 1718.489000
2706.385041 2706.385043 2706.279343 1757.843000
2841.704293 2841.704295 2841.598595 1797.498000
2983.789508 2983.789510 2983.683810 1837.444000
3132.978983 3132.978985 3132.873285 1877.664000
3289.627933 3289.627934 3289.522234 1918.141000
3454.109329 3454.109331 3454.003631 1958.864000
3626.814796 3626.814797 3626.709097 1999.823000
3808.155535 3808.155537 3808.049837 2041.004000
3998.563312 3998.563314 3998.457614 2082.398000
4198.491478 4198.491479 4198.385779 2123.996000
4408.416052 4408.416053 4408.310353 2165.792000
4628.836854 4628.836856 4628.731156 2207.775000
4860.278697 4860.278698 4860.172998 2249.924000
5103.292632 5103.292633 5103.186933 2292.235000
5358.457264 5358.457265 5358.351565 2334.719000
5626.380127 5626.380128 5626.274428 2377.373000
5907.699133 5907.699134 5907.593434 2420.183000
6203.084090 6203.084091 6202.978391 2463.140000
6513.238294 6513.238295 6513.132595 2506.232000
6838.900209 6838.900210 6838.794510 2549.452000
7180.845219 7180.845220 7180.739520 2592.795000
7539.887480 7539.887481 7539.781781 2636.248000
7916.881854 7916.881855 7916.776155 2679.805000
8312.725947 8312.725948 8312.620248 2723.461000
8728.362244 8728.362245 8728.256545 2767.208000
9164.780357 9164.780357 9164.674657 2811.042000
9623.019374 9623.019375 9622.913675 2854.952000
10104.170343 10104.170344 10104.064644 2898.934000
10609.378860 10609.378861 10609.273161 2942.990000
11139.847803 11139.847804 11139.742104 2987.119000
11696.840193 11696.840194 11696.734494 3031.319000
12281.682203 12281.682204 12281.576504 3075.586000
12895.766313 12895.766314 12895.660614 3119.911000
13540.554629 13540.554629 13540.448929 3164.290000
14217.582360 14217.582361 14217.476661 3208.722000
14928.461478 14928.461479 14928.355779 3253.197000
15674.884552 15674.884553 15674.778853 3297.712000
16458.628780 16458.628780 16458.523080 3342.264000
17281.560219 17281.560219 17281.454519 3386.852000
18145.638230 18145.638230 18145.532530 3431.468000
19052.920141 19052.920142 19052.814442 3476.110000
20005.566148 20005.566149 20005.460449 3520.775000
21005.844456 21005.844456 21005.738756 3565.467000
22056.136679 22056.136679 22056.030979 3610.188000
23158.943513 23158.943513 23158.837813 3654.935000
24316.890688 24316.890688 24316.784988 3699.708000
25532.735223 25532.735223 25532.629523 3744.504000
26809.371984 26809.371984 26809.266284 3789.310000
28149.840583 28149.840583 28149.734883 3834.124000
29557.332612 29557.332612 29557.226912 3878.944000
31035.199243 31035.199243 31035.093543 3923.770000
32586.959205 32586.959205 32586.853505 3968.603000
34216.307165 34216.307165 34216.201465 4013.442000
35927.122523 35927.122523 35927.016823 4058.285000
37723.478649 37723.478650 37723.372950 4103.124000
39609.652582 39609.652582 39609.546882 4147.960000
41590.135211 41590.135211 41590.029511 4192.793000
43669.641972 43669.641972 43669.536272 4237.622000
45853.124070 45853.124070 45853.018370 4282.447000
48145.780274 48145.780274 48145.674574 4327.261000
50553.069287 50553.069287 50552.963587 4372.064000
53080.722752 53080.722752 53080.617052 4416.855000
55734.758889 55734.758889 55734.653189 4461.635000
58521.496834 58521.496834 58521.391134 4506.412000
61447.571676 61447.571676 61447.465976 4551.187000
64519.950259 64519.950259 64519.844559 4595.949000
67745.947772 67745.947772 67745.842072 4640.696000
71133.245161 71133.245161 71133.139461 4685.430000
74689.907419 74689.907419 74689.801719 4730.148000
78424.402790 78424.402790 78424.297090 4774.849000
82345.622929 82345.622929 82345.517229 4819.535000
86462.904076 86462.904076 86462.798376 4864.205000
90786.049280 90786.049280 90785.943580 4908.861000
95325.351744 95325.351744 95325.246044 4953.501000
100091.619331 100091.619331 100091.513631 4998.123000
105096.200297 105096.200297 105096.094597 5042.744000
110351.010312 110351.010312 110350.904612 5087.379000
115868.560828 115868.560828 115868.455128 5132.026000
121661.988869 121661.988869 121661.883169 5176.686000
127745.088313 127745.088313 127744.982613 5221.358000
134132.342728 134132.342728 134132.237028 5266.039999
140838.959865 140838.959865 140838.854165 5310.733999
147880.907858 147880.907858 147880.802158 5355.437999
155274.953251 155274.953251 155274.847551 5400.151999
163038.700913 163038.700913 163038.595213 5444.875999
171190.635959 171190.635959 171190.530259 5489.609999
179750.167757 179750.167757 179750.062057 5534.352999
188737.676145 188737.676145 188737.570445 5579.103999
198174.559952 198174.559952 198174.454252 5623.862999
208083.287950 208083.287950 208083.182250 5668.630999
218487.452347 218487.452347 218487.346647 5713.405999
229411.824964 229411.824964 229411.719264 5758.188999
240882.416213 240882.416213 240882.310513 5802.979999
252926.537023 252926.537023 252926.431323 5847.776999
265572.863874 265572.863874 265572.758174 5892.581999
278851.507068 278851.507068 278851.401368 5937.393999
292794.082422 292794.082422 292793.976722 5982.211999
307433.786543 307433.786543 307433.680843 6027.037999
322805.475870 322805.475870 322805.370170 6071.868999
338945.749663 338945.749663 338945.643963 6116.705999
355893.037146 355893.037146 355892.931446 6161.548999
373687.689004 373687.689004 373687.583304 6206.388999
392372.073454 392372.073454 392371.967754 6251.225999
411990.677127 411990.677127 411990.571427 6296.060999
432590.210983 432590.210983 432590.105283 6340.900999
454219.721532 454219.721532 454219.615832 6385.745999
476930.707609 476930.707609 476930.601909 6430.595999
500777.242989 500777.242989 500777.137289 6475.451999
525816.105139 525816.105139 525815.999439 6520.311999
552106.910396 552106.910396 552106.804696 6565.176999
579712.255915 579712.255915 579712.150215 6610.046999
608697.868711 608697.868711 608697.763011 6654.919999
639132.762147 639132.762147 639132.656447 6699.793999
671089.400254 671089.400254 671089.294554 6744.666999
704643.870267 704643.870267 704643.764567 6789.538999
739876.063780 739876.063780 739875.958080 6834.412999
776869.866969 776869.866969 776869.761269 6879.291999
815713.360318 815713.360318 815713.254618 6924.173999
856499.028333 856499.028333 856498.922633 6969.058999
899323.979750 899323.979750 899323.874050 7013.947999
944290.178738 944290.178738 944290.073038 7058.837999
991504.687674 991504.687674 991504.581974 7103.726999
